"Time (EpMin)","x (km)","y (km)","z (km)","x (km/sec)","y (km/sec)","z (km/sec)"
0.00000,-26301.721941,-2025.542484,-22071.441353,-1.067647,-10.069232,-2.434488
1.00000,-26349.156442,-2629.309779,-22216.720585,-0.513691,-10.050918,-2.405294
2.00000,-26363.416533,-3230.993429,-22359.718827,0.037741,-9.999802,-2.358459
3.00000,-26344.730848,-3828.631935,-22499.380911,0.584081,-9.916120,-2.294111
4.00000,-26293.481254,-4420.281973,-22634.662254,1.122784,-9.800263,-2.212464
5.00000,-26210.201481,-5004.029063,-22764.533316,1.651342,-9.652778,-2.113817
6.00000,-26095.574038,-5577.995320,-22887.985202,2.167296,-9.474362,-1.998548
7.00000,-25950.427409,-6140.349948,-23004.033889,2.668251,-9.265862,-1.867119
8.00000,-25775.731555,-6689.316410,-23111.725668,3.151881,-9.028267,-1.720067
9.00000,-25572.593714,-7223.182613,-23210.141054,3.615944,-8.762705,-1.558007
10.00000,-25342.252573,-7740.307346,-23298.399963,4.058294,-8.470441,-1.381625
11.00000,-25086.072768,-8239.129916,-23375.665224,4.476890,-8.152864,-1.191677
12.00000,-24805.537806,-8718.175879,-23441.147407,4.869804,-7.811487,-0.988985
13.00000,-24502.243407,-9176.065782,-23494.107850,5.235233,-7.447934,-0.774433
14.00000,-24177.889313,-9611.520030,-23533.863060,5.571507,-7.063937,-0.548962
15.00000,-23834.271568,-10023.366761,-23559.787193,5.877095,-6.661325,-0.313564
16.00000,-23473.273377,-10410.545699,-23571.315936,6.150615,-6.242015,-0.069284
17.00000,-23096.856496,-10772.114921,-23567.948398,6.390840,-5.808006,0.182795
18.00000,-22707.051327,-11107.253595,-23549.250407,6.596704,-5.361364,0.441548
19.00000,-22305.947536,-11415.267684,-23514.855759,6.767306,-4.904216,0.705819
20.00000,-21895.683585,-11695.591450,-23464.468876,6.901914,-4.438740,0.974427
21.00000,-21478.436812,-11947.791848,-23397.865386,6.999970,-3.967151,1.246167
22.00000,-21056.412556,-12171.568874,-23314.894096,7.061094,-3.491694,1.519818
23.00000,-20631.833873,-12366.758649,-23215.476887,7.085083,-3.014633,1.794152
24.00000,-20206.930496,-12533.332504,-23099.609962,7.071912,-2.538236,2.067936
25.00000,-19783.928392,-12671.398646,-22967.363065,7.021736,-2.064768,2.339938
26.00000,-19365.038742,-12781.200077,-22818.879974,6.934888,-1.596481,2.608936
27.00000,-18952.447560,-12863.114806,-22654.377059,6.811879,-1.135598,2.873722
28.00000,-18548.304905,-12917.652812,-22474.142932,6.653393,-0.684309,3.133107
29.00000,-18154.714646,-12945.453912,-22278.536835,6.460285,-0.244753,3.385926
30.00000,-17773.724404,-12947.285413,-22067.986528,6.233578,0.180984,3.631049
31.00000,-17407.315464,-12924.037046,-21842.987010,5.974455,0.590888,3.867379
32.00000,-17057.393380,-12876.717262,-21604.097758,5.684258,0.983018,4.093863
33.00000,-16725.778795,-12806.448900,-21351.939808,5.364476,1.355523,4.309493
34.00000,-16414.198573,-12714.462609,-21087.193358,5.016742,1.706644,4.513316
35.00000,-16124.277543,-12602.091604,-20810.594148,4.642823,2.034727,4.704433
36.00000,-15857.530637,-12470.765050,-20522.930038,4.244614,2.338231,4.882005
37.00000,-15615.355610,-12322.001064,-20225.037244,3.824125,2.615734,5.045260
38.00000,-15399.026289,-12157.399386,-19917.796340,3.383474,2.865938,5.193492
39.00000,-15209.686435,-11978.633630,-19602.128049,2.924876,3.087679,5.326069
40.00000,-15048.344218,-11787.443184,-19278.988838,2.450634,3.279931,5.442433
41.00000,-14915.867373,-11585.624758,-18949.366346,1.963124,3.441810,5.542103
42.00000,-14812.979002,-11375.023712,-18614.274654,1.464789,3.572579,5.624678
43.00000,-14740.254110,-11157.525057,-18274.749436,0.958120,3.671653,5.689841
44.00000,-14698.116797,-10935.044627,-17931.842881,0.445653,3.738598,5.737355
45.00000,-14686.838216,-10709.518952,-17586.619138,-0.070052,3.773138,5.767069
46.00000,-14706.535304,-10482.897259,-17240.148378,-0.586418,3.775152,5.778918
47.00000,-14757.170167,-10257.130454,-16893.502664,-1.100863,3.744678,5.772921
48.00000,-14838.550288,-10034.163365,-16547.749762,-1.610817,3.681909,5.749182
49.00000,-14950.329438,-9815.923470,-16203.949213,-2.113729,3.587198,5.707893
50.00000,-15092.009346,-9604.313611,-15863.145939,-2.607084,3.461048,5.649326
51.00000,-15262.942101,-9401.200718,-15526.366595,-3.088412,3.304118,5.573838
52.00000,-15462.333247,-9208.408375,-15194.613623,-3.555301,3.117213,5.481866
53.00000,-15689.245642,-9027.707212,-14868.860937,-4.005408,2.901286,5.373927
54.00000,-15942.603956,-8860.806498,-14550.049170,-4.436471,2.657429,5.250613
55.00000,-16221.199836,-8709.345879,-14239.081182,-4.846320,2.386868,5.112589
56.00000,-16523.697739,-8574.887423,-13936.817745,-5.232887,2.090962,4.960592
57.00000,-16848.641370,-8458.908028,-13644.073431,-5.594216,1.771188,4.795426
58.00000,-17194.460668,-8362.792317,-13361.612728,-5.928472,1.429144,4.617955
59.00000,-17559.479399,-8287.825870,-13090.146392,-6.233952,1.066532,4.429104
60.00000,-17941.923223,-8235.188994,-12830.328059,-6.509089,0.685155,4.229852
61.00000,-18339.928212,-8205.951049,-12582.751135,-6.752464,0.286909,4.021227
62.00000,-18751.549867,-8201.065182,-12347.945972,-6.962811,-0.126231,3.804302
63.00000,-19174.772470,-8221.363717,-12126.377354,-7.139022,-0.552215,3.580188
64.00000,-19607.518801,-8267.553968,-11918.442407,-7.280155,-0.988932,3.350032
65.00000,-20047.660073,-8340.215520,-11724.468143,-7.385436,-1.434218,3.115010
66.00000,-20493.026350,-8439.795794,-11544.711190,-7.454262,-1.885865,2.876317
67.00000,-20941.416812,-8566.609899,-11379.354920,-7.486210,-2.341637,2.635169
68.00000,-21390.610503,-8720.837110,-11228.510280,-7.481031,-2.799276,2.392791
69.00000,-21838.376919,-8902.521700,-11092.213755,-7.438655,-3.256513,2.150415
70.00000,-22282.486878,-9111.571101,-10970.428627,-7.359195,-3.711082,1.909271
71.00000,-22720.723128,-9347.757616,-10863.044060,-7.242938,-4.160727,1.670582
72.00000,-23150.891084,-9610.718924,-10769.876136,-7.090351,-4.603219,1.435561
73.00000,-23570.829503,-9899.959204,-10690.669270,-6.902075,-5.036358,1.205400
74.00000,-23978.420701,-10214.852650,-10625.096507,-6.678924,-5.457991,0.981268
75.00000,-24371.600909,-10554.645630,-10572.761786,-6.421880,-5.866019,0.764305
76.00000,-24748.370161,-10918.460509,-10533.201724,-6.132087,-6.258409,0.555614
77.00000,-25106.801950,-11305.299801,-10505.887885,-5.810848,-6.633200,0.356259
78.00000,-25445.052490,-11714.050962,-10490.229371,-5.459617,-6.988518,0.167258
79.00000,-25761.369605,-12143.491709,-10485.575699,-5.079994,-7.322581,-0.010421
80.00000,-26054.101221,-12592.295801,-10491.219981,-4.673713,-7.633708,-0.175866
81.00000,-26321.703268,-13059.039465,-10506.402367,-4.242640,-7.920328,-0.328225
82.00000,-26562.747149,-13542.208178,-10530.313744,-3.788757,-8.180989,-0.466709
83.00000,-26775.926643,-14040.203906,-10562.099674,-3.314159,-8.414360,-0.590597
84.00000,-26960.064213,-14551.352642,-10600.864700,-2.821039,-8.619245,-0.699237
85.00000,-27114.116560,-15073.913002,-10645.676104,-2.311681,-8.794582,-0.792055
86.00000,-27237.179858,-15606.083689,-10695.569332,-1.788445,-8.939450,-0.868550
87.00000,-27328.494047,-16146.012517,-10749.552286,-1.253760,-9.053076,-0.928302
88.00000,-27387.446299,-16691.805940,-10806.609497,-0.710110,-9.134835,-0.970973
89.00000,-27413.574371,-17241.536784,-10865.708408,-0.160021,-9.184258,-0.996308
90.00000,-27406.568434,-17793.254902,-10925.802962,0.393948,-9.201027,-1.004133
91.00000,-27366.272925,-18344.995270,-10985.840005,0.949221,-9.184983,-0.994364
92.00000,-27292.686966,-18894.788641,-11044.763062,1.503214,-9.136124,-0.966999
93.00000,-27185.964763,-19440.669692,-11101.518879,2.053349,-9.054605,-0.922122
94.00000,-27046.414464,-19980.687799,-11155.061062,2.597069,-8.940740,-0.859903
95.00000,-26874.497097,-20512.915037,-11204.356694,3.131844,-8.794994,-0.780596
96.00000,-26670.823937,-21035.456799,-11248.389762,3.655189,-8.617988,-0.684537
97.00000,-26436.154035,-21546.459478,-11286.167736,4.164674,-8.410492,-0.572145
98.00000,-26171.390056,-22044.120819,-11316.724705,4.657935,-8.173422,-0.443916
99.00000,-25877.574512,-22526.697051,-11339.127797,5.132685,-7.907836,-0.300426
100.00000,-25555.884184,-22992.512760,-11352.479961,5.586728,-7.614931,-0.142323
101.00000,-25207.625025,-23439.967434,-11355.926109,6.017967,-7.296030,0.029673
102.00000,-24834.225296,-23867.544637,-11348.655479,6.424412,-6.952585,0.214774
103.00000,-24437.229346,-24273.817741,-11329.907402,6.804197,-6.586163,0.412130
104.00000,-24018.289520,-24657.458295,-11298.973176,7.155579,-6.198443,0.620829
105.00000,-23579.158856,-25017.240907,-11255.201367,7.476956,-5.791206,0.839904
106.00000,-23121.682065,-25352.050523,-11197.999141,7.766867,-5.366323,1.068339
107.00000,-22647.787214,-25660.886412,-11126.837015,8.024004,-4.925754,1.305071
108.00000,-22159.475902,-25942.868276,-11041.249606,8.247216,-4.471532,1.548996
109.00000,-21658.814229,-26197.239122,-10940.839750,8.435515,-4.005753,1.798975
110.00000,-21147.922233,-26423.370214,-10825.278644,8.588083,-3.530572,2.053839
111.00000,-20628.964354,-26620.762731,-10694.309267,8.704270,-3.048187,2.312395
112.00000,-20104.138312,-26789.051491,-10547.745900,8.783603,-2.560829,2.573431
113.00000,-19575.665289,-26928.005324,-10385.476793,8.825788,-2.070753,2.835723
114.00000,-19045.778527,-27037.529445,-10207.463062,8.830706,-1.580229,3.098039
115.00000,-18516.713247,-27117.664686,-10013.740563,8.798420,-1.091525,3.359148
116.00000,-17990.695315,-27168.588351,-9804.418172,8.729170,-0.606902,3.617822
117.00000,-17469.931063,-27190.612350,-9579.678845,8.623375,-0.128600,3.872846
118.00000,-16956.596196,-27184.182569,-9339.777305,8.481629,0.341173,4.123020
119.00000,-16452.825788,-27149.875856,-9085.040268,8.304700,0.800247,4.367168
120.00000,-15960.703597,-27088.397978,-8815.863586,8.093523,1.246509,4.604141
121.00000,-15482.252409,-27000.579551,-8532.711502,7.849200,1.677905,4.832825
122.00000,-15019.424146,-26887.372295,-8236.114019,7.572990,2.092452,5.052144
123.00000,-14574.090301,-26749.844721,-7926.663796,7.266307,2.488253,5.261067
124.00000,-14148.033360,-26589.176311,-7605.014479,6.930710,2.863498,5.458613
125.00000,-13742.937923,-26406.652268,-7271.876834,6.567898,3.216477,5.643854
126.00000,-13360.382792,-26203.657074,-6928.015721,6.179701,3.545590,5.815920
127.00000,-13001.833065,-25981.668185,-6574.245837,5.768070,3.849350,5.974005
128.00000,-12668.633566,-25742.248305,-6211.428765,5.335068,4.126392,6.117369
129.00000,-12362.002068,-25487.038231,-5840.468249,4.882862,4.375484,6.245341
130.00000,-12083.023571,-25217.748793,-5462.306052,4.413710,4.595524,6.357327
131.00000,-11832.645033,-24936.152639,-5077.917457,3.929951,4.785555,6.452804
132.00000,-11611.670863,-24644.075644,-4688.306625,3.433996,4.944761,6.531331
133.00000,-11420.759103,-24343.388066,-4294.501800,2.928312,5.072478,6.592548
134.00000,-11260.418214,-24035.995563,-3897.550406,2.415414,5.168192,6.636176
135.00000,-11131.004595,-23723.830064,-3498.513838,1.897851,5.231545,6.662021
136.00000,-11032.721278,-23408.840015,-3098.463245,1.378192,5.262333,6.669974
137.00000,-10965.616313,-23092.981690,-2698.472973,0.859020,5.260513,6.660010
138.00000,-10929.583230,-22778.209016,-2299.616972,0.342911,5.226195,6.632191
139.00000,-10924.360931,-22466.464816,-1902.962219,-0.167571,5.159648,6.586663
140.00000,-10949.535731,-22159.670673,-1509.565172,-0.669892,5.061298,6.523657
141.00000,-11004.542460,-21859.718524,-1120.465003,-1.161556,4.931723,6.443488
142.00000,-11088.668226,-21568.460584,-736.680547,-1.640119,4.771651,6.346552
143.00000,-11201.054814,-21287.701365,-359.203362,-2.103201,4.581958,6.233326
144.00000,-11340.703841,-21019.188065,11.004917,-2.548496,4.363664,6.104362
145.00000,-11506.480868,-20764.602784,373.018744,-2.973785,4.117926,5.960291
146.00000,-11697.121207,-20525.554108,725.952341,-3.376946,3.846033,5.801812
147.00000,-11911.235997,-20303.569386,1068.964065,-3.755962,3.549402,5.629696
148.00000,-12147.318889,-20100.087374,1401.260410,-4.108935,3.229567,5.444777
149.00000,-12403.753340,-19916.451276,1722.099787,-4.434091,2.888178,5.247950
150.00000,-12678.820410,-19753.902262,2030.796041,-4.729792,2.526985,5.040166
151.00000,-12970.707120,-19613.573442,2326.721715,-4.994541,2.147837,4.822430
152.00000,-13277.515139,-19496.484431,2609.311018,-5.226992,1.752667,4.595792
153.00000,-13597.270009,-19403.536386,2878.062507,-5.425953,1.343488,4.361346
154.00000,-13927.930661,-19335.507660,3132.541453,-5.590394,0.922379,4.120222
155.00000,-14267.399341,-19293.049994,3372.381742,-5.719455,0.491479,3.873581
156.00000,-14613.531336,-19276.685610,3597.288318,-5.812442,0.052971,3.622609
157.00000,-14964.146255,-19286.804110,3807.036975,-5.868839,-0.390921,3.368515
158.00000,-15317.037350,-19323.661315,4001.477479,-5.888304,-0.837950,3.112519
159.00000,-15669.983359,-19387.377316,4180.532146,-5.870676,-1.285851,2.855851
160.00000,-16020.758130,-19477.936510,4344.198100,-5.815972,-1.732358,2.599744
161.00000,-16367.142452,-19595.187056,4492.545483,-5.724387,-2.175207,2.345427
162.00000,-16706.933684,-19738.842188,4625.718647,-5.596296,-2.612155,2.094118
163.00000,-17037.957427,-19908.481023,4743.934018,-5.432249,-3.040986,1.847023
164.00000,-17358.077198,-20103.551009,4847.480109,-5.232970,-3.459521,1.605323
165.00000,-17665.205239,-20323.370319,4936.715478,-4.999354,-3.865634,1.370175
166.00000,-17957.312293,-20567.131268,5012.067275,-4.732460,-4.257255,1.142703
167.00000,-18232.437885,-20833.903983,5074.028467,-4.433511,-4.632387,0.923992
168.00000,-18488.699213,-21122.641110,5123.156419,-4.103882,-4.989108,0.715087
169.00000,-18724.300535,-21432.182738,5160.069493,-3.745097,-5.325589,0.516983
170.00000,-18937.541915,-21761.261920,5185.444190,-3.358822,-5.640095,0.330620
171.00000,-19126.827254,-22108.510867,5200.011846,-2.946855,-5.930999,0.156885
172.00000,-19290.672182,-22472.467431,5204.555061,-2.511118,-6.196785,-0.003400
173.00000,-19427.711118,-22851.582197,5199.903884,-2.053648,-6.436059,-0.149476
174.00000,-19536.703924,-23244.225910,5186.931765,-1.576589,-6.647556,-0.280656
175.00000,-19616.542060,-23648.697263,5166.551132,-1.082177,-6.830142,-0.396323
176.00000,-19666.253397,-24063.231262,5139.709639,-0.572735,-6.982824,-0.495937
177.00000,-19685.007723,-24486.007461,5107.384515,-0.050657,-7.104752,-0.579035
178.00000,-19672.120400,-24915.158843,5070.578328,0.481601,-7.195224,-0.645236
179.00000,-19627.055294,-25348.780911,5030.314654,1.021534,-7.253690,-0.694239
180.00000,-19549.428147,-25784.940643,4987.632016,1.566599,-7.279753,-0.725829
181.00000,-19439.008135,-26221.685892,4943.579342,2.114226,-7.273172,-0.739874
182.00000,-19295.718516,-26657.054875,4899.211564,2.661836,-7.233865,-0.736328
183.00000,-19119.638034,-27089.085409,4855.583004,3.206846,-7.161905,-0.715229
184.00000,-18910.999556,-27515.824554,4813.743790,3.746688,-7.057523,-0.676702
185.00000,-18670.189927,-27935.337832,4774.733369,4.278814,-6.921107,-0.620958
186.00000,-18397.747185,-28345.718711,4739.576813,4.800718,-6.753197,-0.548287
187.00000,-18094.358946,-28745.097635,4709.278437,5.309938,-6.554488,-0.459066
188.00000,-17760.858227,-29131.651129,4684.818349,5.804076,-6.325820,-0.353751
189.00000,-17398.220394,-29503.610475,4667.146223,6.280803,-6.068178,-0.232875
190.00000,-17007.557463,-29859.270360,4657.178158,6.737876,-5.782687,-0.097048
191.00000,-16590.113959,-30196.996902,4655.790729,7.173144,-5.470607,0.053047
192.00000,-16147.259697,-30515.235713,4663.818218,7.584562,-5.133324,0.216659
193.00000,-15680.484461,-30812.519215,4682.047050,7.970199,-4.772346,0.392970
194.00000,-15191.389651,-31087.473837,4711.213454,8.328246,-4.389296,0.581100
195.00000,-14681.681859,-31338.826491,4751.998387,8.657029,-3.985902,0.780111
196.00000,-14153.163403,-31565.410843,4805.025683,8.955011,-3.563990,0.989014
197.00000,-13607.724914,-31766.172813,4870.857540,9.220806,-3.125476,1.206768
198.00000,-13047.335130,-31940.175715,4949.993216,9.453181,-2.672355,1.432293
199.00000,-12474.032506,-32086.604749,5042.865152,9.651063,-2.206694,1.664467
200.00000,-11889.914407,-32204.770915,5149.838241,9.813544,-1.730618,1.902137
201.00000,-11297.128112,-32294.114331,5271.206664,9.939888,-1.246303,2.144123
202.00000,-10697.859386,-32354.206948,5407.193755,10.029531,-0.755966,2.389222
203.00000,-10094.323104,-32384.754596,5557.949590,10.082084,-0.261851,2.636217
204.00000,-9488.751563,-32385.598395,5723.551468,10.097339,0.233778,2.883881
205.00000,-8883.384662,-32356.715537,5904.002433,10.075264,0.728651,3.130982
206.00000,-8280.458838,-32298.219389,6099.231610,10.016009,1.220502,3.376289
207.00000,-7682.195678,-32210.358949,6309.095162,9.919899,1.707077,3.618583
208.00000,-7090.792469,-32093.517634,6533.375726,9.787439,2.186151,3.856654
209.00000,-6508.410923,-31948.211484,6771.784061,9.619307,2.655532,4.089314
210.00000,-5937.166496,-31775.086601,7023.960853,9.416352,3.113076,4.315401
211.00000,-5379.119087,-31574.916121,7289.477413,9.179590,3.556696,4.533783
212.00000,-4836.262613,-31348.596431,7567.838357,8.910201,3.984372,4.743363
213.00000,-4310.515638,-31097.142921,7858.483624,8.609518,4.394161,4.943088
214.00000,-3803.711703,-30821.684993,8160.791770,8.279028,4.784205,5.131951
215.00000,-3317.591299,-30523.460755,8474.081958,7.920358,5.152741,5.308996
216.00000,-2853.793059,-30203.810965,8797.617835,7.535271,5.498111,5.473324
217.00000,-2413.845948,-29864.172625,9130.610875,7.125657,5.818767,5.624095
218.00000,-1999.161980,-29506.072057,9472.224131,6.693523,6.113282,5.760536
219.00000,-1611.029453,-29131.117554,9821.576230,6.240983,6.380352,5.881941
220.00000,-1250.606804,-28740.991636,10177.745570,5.770251,6.618806,5.987674
221.00000,-918.917052,-28337.442961,10539.774717,5.283625,6.827612,6.077177
222.00000,-616.842870,-27922.277920,10906.674976,4.783482,7.005879,6.149968
223.00000,-345.122450,-27497.351924,11277.431112,4.272260,7.152865,6.205644
224.00000,-104.345950,-27064.560484,11651.006192,3.752452,7.267976,6.243885
225.00000,105.047345,-26625.830105,12026.346546,3.226592,7.350772,6.264454
226.00000,282.771008,-26183.108987,12402.386792,2.697241,7.400970,6.267197
227.00000,428.692918,-25738.357683,12778.054932,2.166976,7.418443,6.252046
228.00000,542.835747,-25293.539639,13152.277471,1.638379,7.403221,6.219021
229.00000,625.377088,-24850.611729,13523.984708,1.114024,7.355490,6.168224
230.00000,676.647817,-24411.514992,13892.115203,0.596461,7.275597,6.099843
231.00000,697.131460,-23978.165048,14255.621816,0.088210,7.164038,6.014149
232.00000,687.461360,-23552.443007,14613.476221,-0.408258,7.021465,5.911499
233.00000,648.417058,-23136.186554,14964.673353,-0.890526,6.848677,5.792328
234.00000,580.921517,-22731.180849,15308.237151,-1.356249,6.646622,5.657150
235.00000,486.036176,-22339.150063,15643.224766,-1.803159,6.416383,5.506557
236.00000,364.955116,-21961.749255,15968.730509,-2.229083,6.159184,5.341213
237.00000,219.000691,-21600.556054,16283.891375,-2.631948,5.876376,5.161854
238.00000,49.615644,-21257.063448,16587.889928,-3.009791,5.569432,4.969282
239.00000,-141.642597,-20932.672263,16879.959280,-3.360774,5.239945,4.764361
240.00000,-353.110603,-20628.684793,17159.385715,-3.683185,4.889611,4.548015
241.00000,-583.025963,-20346.298143,17425.513118,-3.975454,4.520231,4.321223
242.00000,-829.536780,-20086.598900,17677.745070,-4.236153,4.133694,4.085013
243.00000,-1090.709669,-19850.557487,17915.548704,-4.464010,3.731974,3.840457
244.00000,-1364.540113,-19639.023930,18138.456225,-4.657911,3.317117,3.588667
245.00000,-1648.961219,-19452.723417,18346.067995,-4.816905,2.891230,3.330790
246.00000,-1941.854136,-19292.252935,18538.054099,-4.940211,2.456477,3.068000
247.00000,-2241.058823,-19158.078697,18714.155335,-5.027221,2.015060,2.801497
248.00000,-2544.383437,-19050.533425,18874.185453,-5.077500,1.569216,2.532496
249.00000,-2849.615450,-18969.815017,19018.031476,-5.090793,1.121201,2.262223
250.00000,-3154.532909,-18915.985815,19145.653794,-5.067024,0.673284,1.991911
251.00000,-3456.914108,-18888.971893,19257.087198,-5.006295,0.227729,1.722792
252.00000,-3754.548873,-18888.563658,19352.440204,-4.908887,-0.213209,1.456091
253.00000,-4045.249666,-18914.417056,19431.894180,-4.775258,-0.647296,1.193023
